Time,Channel A,Channel B
(ms),(mV),(mV)

0.00000000,133.27430000,380.13850000
0.04096000,168.05020000,380.13850000
0.08192000,202.84120000,371.37970000
0.12288000,228.93460000,371.37970000
0.16384000,250.67900000,375.75910000
0.20480000,259.37680000,371.37970000
0.24576000,259.37680000,371.37970000
0.28672000,246.33010000,375.75910000
0.32768000,224.58570000,371.37970000
0.36864000,202.84120000,375.75910000
0.40960000,168.05020000,375.75910000
0.45056000,133.27430000,367.00030000
0.49152000,98.48322000,375.75910000
0.53248000,68.04102000,371.37970000
0.57344000,46.29657000,375.75910000
0.61440000,33.24991000,375.75910000
0.65536000,28.90103000,375.75910000
0.69632000,33.24991000,371.37970000
0.73728000,46.29657000,371.37970000
0.77824000,72.38989000,375.75910000
0.81920000,102.83210000,367.00030000
0.86015999,137.62320000,375.75910000
0.90111999,168.05020000,375.75910000
0.94207999,198.49240000,371.37970000
0.98303999,224.58570000,371.37970000
1.02399999,246.33010000,375.75910000
1.06495999,259.37680000,375.75910000
1.10591999,263.72570000,375.75910000
1.14687999,259.37680000,371.37970000
1.18783999,246.33010000,375.75910000
1.22879999,224.58570000,371.37970000
1.26975999,194.14350000,375.75910000
1.31071999,168.05020000,371.37970000
1.35167999,137.62320000,380.13850000
1.39263999,102.83210000,384.51790000
1.43359999,72.38989000,375.75910000
1.47455999,50.64546000,367.00030000
1.51551999,33.24991000,375.75910000
1.55647999,24.55214000,371.37970000
1.59743999,24.55214000,380.13850000
1.63839999,33.24991000,380.13850000
1.67935999,50.64546000,375.75910000
1.72031999,72.38989000,375.75910000
1.76127999,102.83210000,375.75910000
1.80223999,128.92540000,375.75910000
1.84319999,159.35240000,375.75910000
1.88415999,189.79460000,384.51790000
1.92511999,220.23680000,375.75910000
1.96607999,241.98120000,371.37970000
2.00703999,259.37680000,375.75910000
2.04799999,263.72570000,367.00030000
2.08895999,268.07460000,375.75910000
2.12991999,259.37680000,375.75910000
2.17087999,250.67900000,371.37970000
2.21183999,233.28350000,375.75910000
2.25279999,207.19010000,375.75910000
2.29375999,181.09680000,375.75910000
2.33471999,155.00350000,371.37970000
2.37567999,124.57650000,371.37970000
2.41663999,98.48322000,380.13850000
2.45759999,72.38989000,375.75910000
2.49855998,50.64546000,375.75910000
2.53951998,33.24991000,375.75910000
2.58047998,24.55214000,371.37970000
2.62143998,20.20325000,384.51790000
2.66239998,24.55214000,380.13850000
2.70335998,33.24991000,375.75910000
2.74431998,50.64546000,375.75910000
2.78527998,68.04102000,380.13850000
2.82623998,89.78545000,371.37970000
2.86719998,115.87880000,371.37970000
2.90815998,141.95680000,375.75910000
2.94911998,172.39900000,380.13850000
2.99007998,198.49240000,371.37970000
3.03103998,220.23680000,375.75910000
3.07199998,237.63240000,371.37970000
3.11295998,255.02790000,375.75910000
3.15391998,263.72570000,375.75910000
3.19487998,272.42350000,375.75910000
3.23583998,272.42350000,371.37970000
3.27679998,268.07460000,375.75910000
3.31775998,259.37680000,380.13850000
3.35871998,246.33010000,371.37970000
3.39967998,228.93460000,380.13850000
3.44063998,207.19010000,371.37970000
3.48159998,189.79460000,375.75910000
3.52255998,168.05020000,375.75910000
3.56351998,141.95680000,371.37970000
3.60447998,120.22770000,375.75910000
3.64543998,98.48322000,371.37970000
3.68639998,76.73878000,375.75910000
3.72735998,59.34324000,380.13850000
3.76831998,41.94769000,375.75910000
3.80927998,33.24991000,375.75910000
3.85023998,20.20325000,380.13850000
3.89119998,20.20325000,371.37970000
3.93215998,15.85437000,375.75910000
3.97311998,20.20325000,375.75910000
4.01407998,24.55214000,375.75910000
4.05503998,33.24991000,375.75910000
4.09599998,46.29657000,375.75910000
4.13695997,63.69213000,375.75910000
4.17791997,81.08768000,375.75910000
4.21887997,102.83210000,375.75910000
4.25983997,120.22770000,371.37970000
4.30079997,141.95680000,371.37970000
4.34175997,163.70130000,375.75910000
4.38271997,181.09680000,371.37970000
4.42367997,198.49240000,380.13850000
4.46463997,220.23680000,375.75910000
4.50559997,233.28350000,380.13850000
4.54655997,246.33010000,375.75910000
4.58751997,259.37680000,375.75910000
4.62847997,268.07460000,371.37970000
4.66943997,272.42350000,375.75910000
4.71039997,276.77230000,375.75910000
4.75135997,276.77230000,388.89730000
4.79231997,276.77230000,371.37970000
4.83327997,268.07460000,375.75910000
4.87423997,259.37680000,384.51790000
4.91519997,255.02790000,375.75910000
4.95615997,241.98120000,380.13850000
4.99711997,228.93460000,380.13850000
5.03807997,215.88790000,384.51790000
5.07903997,198.49240000,375.75910000
5.11999997,185.44570000,371.37970000
5.16095997,168.05020000,371.37970000
5.20191997,155.00350000,388.89730000
5.24287997,137.62320000,371.37970000
5.28383997,120.22770000,375.75910000
5.32479997,107.18100000,375.75910000
5.36575997,89.78545000,371.37970000
5.40671997,76.73878000,380.13850000
5.44767997,63.69213000,375.75910000
5.48863997,50.64546000,380.13850000
5.52959997,41.94769000,375.75910000
5.57055997,33.24991000,375.75910000
5.61151997,24.55214000,371.37970000
5.65247997,20.20325000,380.13850000
5.69343997,15.85437000,371.37970000
5.73439997,15.85437000,375.75910000
5.77535996,11.50548000,375.75910000
5.81631996,11.50548000,371.37970000
5.85727996,15.85437000,362.62090000
5.89823996,15.85437000,375.75910000
5.93919996,20.20325000,375.75910000
5.98015996,24.55214000,375.75910000
6.02111996,33.24991000,371.37970000
6.06207996,37.59880000,375.75910000
6.10303996,46.29657000,371.37970000
6.14399996,54.99435000,375.75910000
6.18495996,68.04102000,375.75910000
6.22591996,76.73878000,380.13850000
6.26687996,85.43656000,380.13850000
6.30783996,98.48322000,375.75910000
6.34879996,111.52990000,380.13850000
6.38975996,120.22770000,375.75910000
6.43071996,133.27430000,371.37970000
6.47167996,146.30570000,375.75910000
6.51263996,155.00350000,380.13850000
6.55359996,168.05020000,380.13850000
6.59455996,181.09680000,375.75910000
6.63551996,189.79460000,375.75910000
6.67647996,202.84120000,375.75910000
6.71743996,207.19010000,375.75910000
6.75839996,220.23680000,371.37970000
6.79935996,228.93460000,375.75910000
6.84031996,237.63240000,362.62090000
6.88127996,241.98120000,375.75910000
6.92223996,250.67900000,367.00030000
6.96319996,255.02790000,380.13850000
7.00415996,259.37680000,380.13850000
7.04511996,268.07460000,375.75910000
7.08607996,268.07460000,375.75910000
7.12703996,272.42350000,375.75910000
7.16799996,276.77230000,375.75910000
7.20895996,276.77230000,367.00030000
7.24991996,276.77230000,380.13850000
7.29087996,276.77230000,375.75910000
7.33183996,281.10600000,375.75910000
7.37279996,281.10600000,375.75910000
7.41375995,276.77230000,375.75910000
7.45471995,276.77230000,375.75910000
7.49567995,276.77230000,375.75910000
7.53663995,276.77230000,375.75910000
7.57759995,276.77230000,380.13850000
7.61855995,272.42350000,375.75910000
7.65951995,272.42350000,375.75910000
7.70047995,268.07460000,380.13850000
7.74143995,263.72570000,367.00030000
7.78239995,259.37680000,371.37970000
7.82335995,259.37680000,371.37970000
7.86431995,255.02790000,375.75910000
7.90527995,250.67900000,375.75910000
7.94623995,246.33010000,380.13850000
7.98719995,241.98120000,380.13850000
8.02815995,241.98120000,371.37970000
8.06911995,233.28350000,375.75910000
8.11007995,228.93460000,375.75910000
8.15103995,224.58570000,375.75910000
8.19199995,224.58570000,380.13850000
8.23295995,220.23680000,375.75910000
8.27391995,215.88790000,375.75910000
8.31487995,211.53900000,375.75910000
8.35583995,207.19010000,375.75910000
8.39679995,202.84120000,375.75910000
8.43775995,198.49240000,371.37970000
8.47871995,194.14350000,375.75910000
8.51967995,194.14350000,375.75910000
8.56063995,189.79460000,371.37970000
8.60159995,185.44570000,375.75910000
8.64255995,185.44570000,380.13850000
8.68351995,176.74790000,375.75910000
8.72447995,176.74790000,375.75910000
8.76543995,176.74790000,371.37970000
8.80639995,172.39900000,375.75910000
8.84735995,172.39900000,380.13850000
8.88831995,172.39900000,380.13850000
8.92927995,168.05020000,380.13850000
8.97023995,168.05020000,380.13850000
9.01119995,163.70130000,375.75910000
9.05215994,163.70130000,375.75910000
9.09311994,163.70130000,375.75910000
9.13407994,163.70130000,371.37970000
9.17503994,163.70130000,375.75910000
9.21599994,163.70130000,367.00030000
9.25695994,163.70130000,367.00030000
9.29791994,159.35240000,362.62090000
9.33887994,159.35240000,375.75910000
9.37983994,159.35240000,380.13850000
9.42079994,163.70130000,375.75910000
9.46175994,163.70130000,375.75910000
9.50271994,163.70130000,375.75910000
9.54367994,163.70130000,375.75910000
9.58463994,163.70130000,375.75910000
9.62559994,168.05020000,380.13850000
9.66655994,163.70130000,375.75910000
9.70751994,163.70130000,375.75910000
9.74847994,168.05020000,375.75910000
9.78943994,168.05020000,362.62090000
9.83039994,168.05020000,375.75910000
9.87135994,168.05020000,375.75910000
9.91231994,172.39900000,380.13850000
9.95327994,172.39900000,384.51790000
9.99423994,172.39900000,371.37970000
10.03519994,172.39900000,367.00030000
10.07615994,172.39900000,375.75910000
10.11711994,172.39900000,371.37970000
10.15807994,176.74790000,371.37970000
10.19903994,176.74790000,367.00030000
10.23999994,176.74790000,380.13850000
10.28095994,181.09680000,371.37970000
10.32191994,181.09680000,375.75910000
10.36287994,185.44570000,375.75910000
10.40383994,189.79460000,367.00030000
10.44479994,189.79460000,375.75910000
10.48575994,189.79460000,375.75910000
10.52671994,194.14350000,380.13850000
10.56767994,198.49240000,371.37970000
10.60863994,202.84120000,380.13850000
10.64959994,207.19010000,371.37970000
10.69055994,207.19010000,371.37970000
10.73151993,211.53900000,380.13850000
10.77247993,215.88790000,375.75910000
10.81343993,220.23680000,375.75910000
10.85439993,224.58570000,367.00030000
10.89535993,228.93460000,380.13850000
10.93631993,233.28350000,371.37970000
10.97727993,237.63240000,375.75910000
11.01823993,241.98120000,380.13850000
11.05919993,246.33010000,367.00030000
11.10015993,250.67900000,375.75910000
11.14111993,259.37680000,380.13850000
11.18207993,259.37680000,371.37970000
11.22303993,263.72570000,371.37970000
11.26399993,268.07460000,362.62090000
11.30495993,272.42350000,367.00030000
11.34591993,272.42350000,371.37970000
11.38687993,276.77230000,371.37970000
11.42783993,276.77230000,371.37970000
11.46879993,276.77230000,375.75910000
11.50975993,276.77230000,375.75910000
11.55071993,281.10600000,371.37970000
11.59167993,281.10600000,375.75910000
11.63263993,276.77230000,371.37970000
11.67359993,276.77230000,371.37970000
11.71455993,276.77230000,375.75910000
11.75551993,276.77230000,375.75910000
11.79647993,272.42350000,367.00030000
11.83743993,268.07460000,371.37970000
11.87839993,263.72570000,371.37970000
11.91935993,259.37680000,367.00030000
11.96031993,255.02790000,375.75910000
12.00127993,246.33010000,375.75910000
12.04223993,241.98120000,367.00030000
12.08319993,233.28350000,371.37970000
12.12415993,224.58570000,367.00030000
12.16511993,215.88790000,375.75910000
12.20607993,207.19010000,371.37970000
12.24703993,194.14350000,375.75910000
12.28799993,185.44570000,375.75910000
12.32895993,172.39900000,358.24150000
12.36991992,163.70130000,371.37970000
12.41087992,150.65460000,375.75910000
12.45183992,137.62320000,375.75910000
12.49279992,124.57650000,362.62090000
12.53375992,111.52990000,367.00030000
12.57471992,98.48322000,371.37970000
12.61567992,85.43656000,367.00030000
12.65663992,76.73878000,371.37970000
12.69759992,68.04102000,375.75910000
12.73855992,54.99435000,371.37970000
12.77951992,46.29657000,371.37970000
12.82047992,37.59880000,367.00030000
12.86143992,28.90103000,371.37970000
12.90239992,24.55214000,367.00030000
12.94335992,15.85437000,375.75910000
12.98431992,15.85437000,362.62090000
13.02527992,11.50548000,367.00030000
13.06623992,11.50548000,367.00030000
13.10719992,11.50548000,367.00030000
13.14815992,15.85437000,367.00030000
13.18911992,20.20325000,367.00030000
13.23007992,28.90103000,375.75910000
13.27103992,33.24991000,375.75910000
13.31199992,46.29657000,367.00030000
13.35295992,59.34324000,371.37970000
13.39391992,72.38989000,371.37970000
13.43487992,85.43656000,371.37970000
13.47583992,102.83210000,362.62090000
13.51679992,120.22770000,362.62090000
13.55775992,137.62320000,375.75910000
13.59871992,155.00350000,362.62090000
13.63967992,172.39900000,362.62090000
13.68063992,189.79460000,371.37970000
13.72159992,207.19010000,371.37970000
13.76255992,220.23680000,375.75910000
13.80351992,233.28350000,367.00030000
13.84447992,246.33010000,367.00030000
13.88543992,259.37680000,367.00030000
13.92639992,263.72570000,371.37970000
13.96735992,272.42350000,367.00030000
14.00831991,276.77230000,371.37970000
14.04927991,276.77230000,367.00030000
14.09023991,272.42350000,367.00030000
14.13119991,268.07460000,367.00030000
14.17215991,259.37680000,371.37970000
14.21311991,246.33010000,367.00030000
14.25407991,233.28350000,375.75910000
14.29503991,215.88790000,358.24150000
14.33599991,194.14350000,367.00030000
14.37695991,172.39900000,371.37970000
14.41791991,155.00350000,367.00030000
14.45887991,128.92540000,375.75910000
14.49983991,107.18100000,358.24150000
14.54079991,85.43656000,371.37970000
14.58175991,68.04102000,367.00030000
14.62271991,50.64546000,367.00030000
14.66367991,33.24991000,367.00030000
14.70463991,24.55214000,367.00030000
14.74559991,20.20325000,371.37970000
14.78655991,15.85437000,371.37970000
14.82751991,20.20325000,358.24150000
14.86847991,28.90103000,371.37970000
14.90943991,37.59880000,371.37970000
14.95039991,50.64546000,362.62090000
14.99135991,72.38989000,367.00030000
15.03231991,94.13434000,367.00030000
15.07327991,115.87880000,362.62090000
15.11423991,137.62320000,367.00030000
15.15519991,163.70130000,353.86210000
15.19615991,185.44570000,375.75910000
15.23711991,207.19010000,362.62090000
15.27807991,224.58570000,367.00030000
15.31903991,241.98120000,367.00030000
15.35999991,259.37680000,367.00030000
15.40095991,268.07460000,358.24150000
15.44191991,272.42350000,362.62090000
15.48287991,272.42350000,367.00030000
15.52383991,268.07460000,362.62090000
15.56479991,259.37680000,362.62090000
15.60575991,246.33010000,362.62090000
15.64671990,228.93460000,362.62090000
15.68767990,207.19010000,362.62090000
15.72863990,185.44570000,358.24150000
15.76959990,159.35240000,362.62090000
15.81055990,137.62320000,362.62090000
15.85151990,111.52990000,367.00030000
15.89247990,85.43656000,371.37970000
15.93343990,63.69213000,362.62090000
15.97439990,46.29657000,362.62090000
16.01535990,33.24991000,367.00030000
16.05631990,24.55214000,367.00030000
16.09727990,20.20325000,362.62090000
16.13823990,24.55214000,367.00030000
16.17919990,33.24991000,367.00030000
16.22015990,50.64546000,367.00030000
16.26111990,68.04102000,358.24150000
16.30207990,89.78545000,367.00030000
16.34303990,120.22770000,358.24150000
16.38399990,146.30570000,362.62090000
16.42495990,172.39900000,367.00030000
16.46591990,198.49240000,358.24150000
16.50687990,224.58570000,358.24150000
16.54783990,241.98120000,367.00030000
16.58879990,259.37680000,367.00030000
16.62975990,268.07460000,358.24150000
16.67071990,268.07460000,358.24150000
16.71167990,263.72570000,362.62090000
16.75263990,250.67900000,362.62090000
16.79359990,233.28350000,362.62090000
16.83455990,207.19010000,362.62090000
16.87551990,181.09680000,367.00030000
16.91647990,150.65460000,362.62090000
16.95743990,120.22770000,358.24150000
16.99839990,89.78545000,353.86210000
17.03935990,68.04102000,358.24150000
17.08031990,46.29657000,375.75910000
17.12127990,28.90103000,358.24150000
17.16223990,24.55214000,358.24150000
17.20319990,24.55214000,362.62090000
17.24415990,33.24991000,353.86210000
17.28511989,46.29657000,362.62090000
17.32607989,68.04102000,362.62090000
17.36703989,94.13434000,353.86210000
17.40799989,120.22770000,358.24150000
17.44895989,150.65460000,367.00030000
17.48991989,176.74790000,358.24150000
17.53087989,207.19010000,362.62090000
17.57183989,228.93460000,358.24150000
17.61279989,250.67900000,362.62090000
17.65375989,259.37680000,353.86210000
17.69471989,268.07460000,362.62090000
17.73567989,263.72570000,358.24150000
17.77663989,255.02790000,353.86210000
17.81759989,237.63240000,362.62090000
17.85855989,211.53900000,358.24150000
17.89951989,181.09680000,353.86210000
17.94047989,150.65460000,353.86210000
17.98143989,120.22770000,358.24150000
18.02239989,85.43656000,362.62090000
18.06335989,63.69213000,358.24150000
18.10431989,37.59880000,353.86210000
18.14527989,28.90103000,362.62090000
18.18623989,24.55214000,349.48270000
18.22719989,28.90103000,358.24150000
18.26815989,41.94769000,353.86210000
18.30911989,63.69213000,358.24150000
18.35007989,94.13434000,362.62090000
18.39103989,120.22770000,353.86210000
18.43199989,155.00350000,367.00030000
18.47295989,185.44570000,362.62090000
18.51391989,211.53900000,362.62090000
18.55487989,237.63240000,353.86210000
18.59583989,255.02790000,349.48270000
18.63679989,263.72570000,345.10330000
18.67775989,263.72570000,358.24150000
18.71871989,255.02790000,353.86210000
18.75967989,237.63240000,358.24150000
18.80063989,211.53900000,358.24150000
18.84159989,181.09680000,358.24150000
18.88255989,146.30570000,349.48270000
18.92351988,115.87880000,358.24150000
18.96447988,85.43656000,345.10330000
19.00543988,54.99435000,358.24150000
19.04639988,33.24991000,362.62090000
19.08735988,28.90103000,358.24150000
19.12831988,28.90103000,345.10330000
19.16927988,37.59880000,353.86210000
19.21023988,59.34324000,358.24150000
19.25119988,85.43656000,345.10330000
19.29215988,120.22770000,358.24150000
19.33311988,155.00350000,358.24150000
19.37407988,185.44570000,362.62090000
19.41503988,215.88790000,353.86210000
19.45599988,241.98120000,358.24150000
19.49695988,255.02790000,358.24150000
19.53791988,259.37680000,345.10330000
19.57887988,259.37680000,358.24150000
19.61983988,246.33010000,345.10330000
19.66079988,220.23680000,358.24150000
19.70175988,189.79460000,358.24150000
19.74271988,155.00350000,353.86210000
19.78367988,115.87880000,353.86210000
19.82463988,81.08768000,358.24150000
19.86559988,50.64546000,349.48270000
19.90655988,37.59880000,349.48270000
19.94751988,28.90103000,358.24150000
19.98847988,33.24991000,353.86210000
20.02943988,50.64546000,345.10330000
20.07039988,76.73878000,353.86210000
20.11135988,107.18100000,345.10330000
20.15231988,141.95680000,345.10330000
20.19327988,176.74790000,345.10330000
20.23423988,211.53900000,345.10330000
20.27519988,237.63240000,358.24150000
20.31615988,255.02790000,345.10330000
20.35711988,259.37680000,345.10330000
20.39807988,255.02790000,353.86210000
20.43903988,237.63240000,345.10330000
20.47999988,207.19010000,345.10330000
20.52095988,176.74790000,349.48270000
20.56191988,137.62320000,345.10330000
20.60287987,102.83210000,345.10330000
20.64383987,68.04102000,358.24150000
20.68479987,46.29657000,340.72390000
20.72575987,33.24991000,353.86210000
20.76671987,33.24991000,353.86210000
20.80767987,46.29657000,345.10330000
20.84863987,68.04102000,340.72390000
20.88959987,98.48322000,345.10330000
20.93055987,133.27430000,340.72390000
20.97151987,172.39900000,349.48270000
21.01247987,207.19010000,349.48270000
21.05343987,233.28350000,340.72390000
21.09439987,250.67900000,353.86210000
21.13535987,259.37680000,345.10330000
21.17631987,250.67900000,345.10330000
21.21727987,233.28350000,349.48270000
21.25823987,202.84120000,353.86210000
21.29919987,163.70130000,353.86210000
21.34015987,128.92540000,345.10330000
21.38111987,89.78545000,340.72390000
21.42207987,59.34324000,340.72390000
21.46303987,37.59880000,345.10330000
21.50399987,33.24991000,345.10330000
21.54495987,41.94769000,340.72390000
21.58591987,68.04102000,349.48270000
21.62687987,102.83210000,345.10330000
21.66783987,137.62320000,345.10330000
21.70879987,176.74790000,340.72390000
21.74975987,215.88790000,345.10330000
21.79071987,241.98120000,353.86210000
21.83167987,255.02790000,345.10330000
21.87263987,255.02790000,349.48270000
