Time,Channel A,Channel B
(ms),(mV),(mV)

-500.36734343,194.14350000,-372.90560000
-500.20350343,198.49240000,-368.52620000
-500.03966343,189.79460000,-372.90560000
-499.87582343,176.74790000,-368.52620000
-499.71198343,155.00350000,-372.90560000
-499.54814343,133.27430000,-377.28500000
-499.38430343,111.52990000,-381.66450000
-499.22046343,98.48322000,-368.52620000
-499.05662343,89.78545000,-368.52620000
-498.89278343,94.13434000,-368.52620000
-498.72894344,102.83210000,-364.14690000
-498.56510344,115.87880000,-372.90560000
-498.40126344,137.62320000,-368.52620000
-498.23742344,155.00350000,-372.90560000
-498.07358344,176.74790000,-364.14690000
-497.90974344,189.79460000,-372.90560000
-497.74590344,198.49240000,-368.52620000
-497.58206344,198.49240000,-368.52620000
-497.41822344,189.79460000,-377.28500000
-497.25438344,172.39900000,-381.66450000
-497.09054345,155.00350000,-372.90560000
-496.92670345,133.27430000,-377.28500000
-496.76286345,115.87880000,-377.28500000
-496.59902345,102.83210000,-381.66450000
-496.43518345,94.13434000,-372.90560000
-496.27134345,94.13434000,-377.28500000
-496.10750345,102.83210000,-381.66450000
-495.94366345,115.87880000,-372.90560000
-495.77982345,133.27430000,-377.28500000
-495.61598345,155.00350000,-372.90560000
-495.45214346,172.39900000,-377.28500000
-495.28830346,189.79460000,-364.14690000
-495.12446346,194.14350000,-368.52620000
-494.96062346,198.49240000,-377.28500000
-494.79678346,189.79460000,-377.28500000
-494.63294346,181.09680000,-368.52620000
-494.46910346,168.05020000,-372.90560000
-494.30526346,150.65460000,-368.52620000
-494.14142346,133.27430000,-372.90560000
-493.97758346,115.87880000,-372.90560000
-493.81374347,102.83210000,-372.90560000
-493.64990347,98.48322000,-368.52620000
-493.48606347,94.13434000,-372.90560000
-493.32222347,89.78545000,-377.28500000
-493.15838347,94.13434000,-372.90560000
-492.99454347,102.83210000,-372.90560000
-492.83070347,111.52990000,-381.66450000
-492.66686347,120.22770000,-377.28500000
-492.50302347,137.62320000,-381.66450000
-492.33918347,146.30570000,-372.90560000
-492.17534348,159.35240000,-372.90560000
-492.01150348,172.39900000,-372.90560000
-491.84766348,176.74790000,-372.90560000
-491.68382348,189.79460000,-377.28500000
-491.51998348,189.79460000,-381.66450000
-491.35614348,194.14350000,-372.90560000
-491.19230348,198.49240000,-377.28500000
-491.02846348,198.49240000,-372.90560000
-490.86462348,198.49240000,-377.28500000
-490.70078348,202.84120000,-368.52620000
-490.53694349,198.49240000,-372.90560000
-490.37310349,198.49240000,-372.90560000
-490.20926349,194.14350000,-364.14690000
-490.04542349,194.14350000,-377.28500000
-489.88158349,194.14350000,-372.90560000
-489.71774349,189.79460000,-372.90560000
-489.55390349,189.79460000,-372.90560000
-489.39006349,189.79460000,-368.52620000
-489.22622349,181.09680000,-381.66450000
-489.06238349,181.09680000,-372.90560000
-488.89854350,181.09680000,-372.90560000
-488.73470350,176.74790000,-377.28500000
-488.57086350,176.74790000,-377.28500000
-488.40702350,172.39900000,-372.90560000
-488.24318350,172.39900000,-372.90560000
-488.07934350,172.39900000,-364.14690000
-487.91550350,172.39900000,-368.52620000
-487.75166350,172.39900000,-377.28500000
-487.58782350,172.39900000,-377.28500000
-487.42398350,168.05020000,-372.90560000
-487.26014351,168.05020000,-368.52620000
-487.09630351,163.70130000,-372.90560000
-486.93246351,163.70130000,-377.28500000
-486.76862351,159.35240000,-372.90560000
-486.60478351,155.00350000,-372.90560000
-486.44094351,155.00350000,-377.28500000
-486.27710351,150.65460000,-368.52620000
-486.11326351,150.65460000,-377.28500000
-485.94942351,150.65460000,-377.28500000
-485.78558351,150.65460000,-372.90560000
-485.62174352,150.65460000,-372.90560000
-485.45790352,150.65460000,-372.90560000
-485.29406352,150.65460000,-372.90560000
-485.13022352,150.65460000,-377.28500000
-484.96638352,150.65460000,-368.52620000
-484.80254352,150.65460000,-372.90560000
-484.63870352,150.65460000,-368.52620000
-484.47486352,150.65460000,-368.52620000
-484.31102352,150.65460000,-368.52620000
-484.14718352,150.65460000,-368.52620000
-483.98334353,150.65460000,-372.90560000
-483.81950353,155.00350000,-377.28500000
-483.65566353,155.00350000,-377.28500000
-483.49182353,159.35240000,-372.90560000
-483.32798353,163.70130000,-372.90560000
-483.16414353,163.70130000,-368.52620000
-483.00030353,168.05020000,-368.52620000
-482.83646353,172.39900000,-372.90560000
-482.67262353,181.09680000,-368.52620000
-482.50878353,185.44570000,-381.66450000
-482.34494354,185.44570000,-372.90560000
-482.18110354,189.79460000,-368.52620000
-482.01726354,194.14350000,-368.52620000
-481.85342354,198.49240000,-368.52620000
-481.68958354,198.49240000,-368.52620000
-481.52574354,202.84120000,-377.28500000
-481.36190354,202.84120000,-372.90560000
-481.19806354,198.49240000,-372.90560000
-481.03422354,189.79460000,-364.14690000
-480.87038354,185.44570000,-368.52620000
-480.70654355,176.74790000,-377.28500000
-480.54270355,163.70130000,-368.52620000
-480.37886355,155.00350000,-372.90560000
-480.21502355,137.62320000,-372.90560000
-480.05118355,124.57650000,-368.52620000
-479.88734355,111.52990000,-364.14690000
-479.72350355,102.83210000,-377.28500000
-479.55966355,94.13434000,-368.52620000
-479.39582355,89.78545000,-377.28500000
-479.23198355,89.78545000,-372.90560000
-479.06814356,98.48322000,-372.90560000
-478.90430356,107.18100000,-368.52620000
-478.74046356,120.22770000,-368.52620000
-478.57662356,137.62320000,-368.52620000
-478.41278356,155.00350000,-368.52620000
-478.24894356,172.39900000,-372.90560000
-478.08510356,185.44570000,-372.90560000
-477.92126356,189.79460000,-372.90560000
-477.75742356,198.49240000,-368.52620000
-477.59358356,198.49240000,-368.52620000
-477.42974357,189.79460000,-364.14690000
-477.26590357,185.44570000,-364.14690000
-477.10206357,168.05020000,-368.52620000
-476.93822357,150.65460000,-355.38800000
-476.77438357,128.92540000,-368.52620000
-476.61054357,115.87880000,-364.14690000
-476.44670357,102.83210000,-372.90560000
-476.28286357,94.13434000,-364.14690000
-476.11902357,89.78545000,-368.52620000
-475.95518357,94.13434000,-368.52620000
-475.79134358,102.83210000,-364.14690000
-475.62750358,115.87880000,-364.14690000
-475.46366358,133.27430000,-359.76740000
-475.29982358,155.00350000,-368.52620000
-475.13598358,172.39900000,-359.76740000
-474.97214358,185.44570000,-372.90560000
-474.80830358,194.14350000,-359.76740000
-474.64446358,198.49240000,-372.90560000
-474.48062358,198.49240000,-368.52620000
-474.31678358,189.79460000,-359.76740000
-474.15294359,176.74790000,-368.52620000
-473.98910359,155.00350000,-359.76740000
-473.82526359,137.62320000,-364.14690000
-473.66142359,115.87880000,-368.52620000
-473.49758359,102.83210000,-364.14690000
-473.33374359,94.13434000,-364.14690000
-473.16990359,89.78545000,-364.14690000
-473.00606359,98.48322000,-368.52620000
-472.84222359,107.18100000,-359.76740000
-472.67838359,128.92540000,-359.76740000
-472.51454360,155.00350000,-368.52620000
-472.35070360,172.39900000,-368.52620000
-472.18686360,189.79460000,-359.76740000
-472.02302360,202.84120000,-368.52620000
-471.85918360,198.49240000,-359.76740000
-471.69534360,185.44570000,-364.14690000
-471.53150360,163.70130000,-359.76740000
-471.36766360,137.62320000,-359.76740000
-471.20382360,111.52990000,-372.90560000
-471.03998360,98.48322000,-355.38800000
-470.87614360,89.78545000,-359.76740000
-470.71230361,102.83210000,-359.76740000
-470.54846361,124.57650000,-355.38800000
-470.38462361,155.00350000,-359.76740000
-470.22078361,185.44570000,-355.38800000
-470.05694361,198.49240000,-355.38800000
-469.89310361,198.49240000,-359.76740000
-469.72926361,176.74790000,-359.76740000
-469.56542361,146.30570000,-359.76740000
-469.40158361,115.87880000,-359.76740000
-469.23774361,98.48322000,-364.14690000
-469.07390362,94.13434000,-359.76740000
-468.91006362,107.18100000,-355.38800000
-468.74622362,137.62320000,-359.76740000
-468.58238362,168.05020000,-359.76740000
-468.41854362,189.79460000,-359.76740000
-468.25470362,198.49240000,-359.76740000
-468.09086362,181.09680000,-359.76740000
-467.92702362,146.30570000,-359.76740000
-467.76318362,115.87880000,-359.76740000
-467.59934362,94.13434000,-355.38800000
-467.43550363,98.48322000,-359.76740000
-467.27166363,120.22770000,-355.38800000
-467.10782363,155.00350000,-351.00860000
-466.94398363,185.44570000,-355.38800000
-466.78014363,198.49240000,-355.38800000
-466.61630363,189.79460000,-346.62920000
-466.45246363,155.00350000,-351.00860000
-466.28862363,120.22770000,-355.38800000
-466.12478363,98.48322000,-355.38800000
-465.96094363,94.13434000,-359.76740000
-465.79710364,107.18100000,-359.76740000
-465.63326364,137.62320000,-355.38800000
-465.46942364,172.39900000,-355.38800000
-465.30558364,194.14350000,-346.62920000
-465.14174364,198.49240000,-355.38800000
-464.97790364,172.39900000,-351.00860000
-464.81406364,137.62320000,-355.38800000
-464.65022364,107.18100000,-346.62920000
-464.48638364,89.78545000,-355.38800000
-464.32254364,102.83210000,-355.38800000
-464.15870365,128.92540000,-351.00860000
-463.99486365,163.70130000,-346.62920000
-463.83102365,189.79460000,-355.38800000
-463.66718365,202.84120000,-346.62920000
-463.50334365,185.44570000,-355.38800000
-463.33950365,155.00350000,-342.24980000
-463.17566365,120.22770000,-355.38800000
-463.01182365,94.13434000,-355.38800000
-462.84798365,94.13434000,-355.38800000
-462.68414365,120.22770000,-351.00860000
-462.52030366,155.00350000,-355.38800000
-462.35646366,185.44570000,-342.24980000
-462.19262366,198.49240000,-351.00860000
-462.02878366,181.09680000,-355.38800000
-461.86494366,141.95680000,-342.24980000
-461.70110366,102.83210000,-346.62920000
-461.53726366,94.13434000,-355.38800000
-461.37342366,111.52990000,-346.62920000
-461.20958366,150.65460000,-342.24980000
-461.04574366,185.44570000,-346.62920000
-460.88190367,198.49240000,-346.62920000
-460.71806367,181.09680000,-337.87040000
-460.55422367,137.62320000,-342.24980000
-460.39038367,102.83210000,-346.62920000
-460.22654367,94.13434000,-333.49100000
-460.06270367,124.57650000,-337.87040000
-459.89886367,168.05020000,-342.24980000
-459.73502367,194.14350000,-342.24980000
-459.57118367,185.44570000,-337.87040000
-459.40734367,137.62320000,-342.24980000
-459.24350368,98.48322000,-333.49100000
-459.07966368,98.48322000,-342.24980000
-458.91582368,137.62320000,-342.24980000
-458.75198368,181.09680000,-342.24980000
-458.58814368,194.14350000,-342.24980000
-458.42430368,172.39900000,-337.87040000
-458.26046368,120.22770000,-337.87040000
-458.09662368,94.13434000,-346.62920000
-457.93278368,111.52990000,-342.24980000
-457.76894368,159.35240000,-337.87040000
-457.60510369,194.14350000,-329.12680000
-457.44126369,185.44570000,-342.24980000
-457.27742369,137.62320000,-333.49100000
-457.11358369,94.13434000,-337.87040000
-456.94974369,107.18100000,-337.87040000
-456.78590369,155.00350000,-337.87040000
-456.62206369,189.79460000,-333.49100000
-456.45822369,189.79460000,-324.74750000
-456.29438369,141.95680000,-329.12680000
-456.13054369,102.83210000,-333.49100000
-455.96670370,98.48322000,-337.87040000
-455.80286370,141.95680000,-333.49100000
-455.63902370,189.79460000,-337.87040000
-455.47518370,194.14350000,-324.74750000
-455.31134370,159.35240000,-333.49100000
-455.14750370,111.52990000,-333.49100000
-454.98366370,94.13434000,-333.49100000
-454.81982370,124.57650000,-337.87040000
-454.65598370,176.74790000,-329.12680000
-454.49214370,198.49240000,-337.87040000
-454.32830371,168.05020000,-329.12680000
-454.16446371,120.22770000,-329.12680000
-454.00062371,94.13434000,-333.49100000
-453.83678371,120.22770000,-329.12680000
-453.67294371,168.05020000,-342.24980000
-453.50910371,198.49240000,-329.12680000
-453.34526371,181.09680000,-329.12680000
-453.18142371,133.27430000,-324.74750000
-453.01758371,94.13434000,-329.12680000
-452.85374371,102.83210000,-324.74750000
-452.68990372,150.65460000,-320.36800000
-452.52606372,189.79460000,-329.12680000
-452.36222372,189.79460000,-324.74750000
-452.19838372,137.62320000,-320.36800000
-452.03454372,98.48322000,-324.74750000
-451.87070372,102.83210000,-333.49100000
-451.70686372,150.65460000,-329.12680000
-451.54302372,194.14350000,-320.36800000
-451.37918372,185.44570000,-324.74750000
-451.21534372,133.27430000,-324.74750000
-451.05150373,94.13434000,-320.36800000
-450.88766373,107.18100000,-324.74750000
-450.72382373,163.70130000,-324.74750000
-450.55998373,198.49240000,-333.49100000
-450.39614373,172.39900000,-324.74750000
-450.23230373,115.87880000,-324.74750000
-450.06846373,94.13434000,-320.36800000
-449.90462373,133.27430000,-320.36800000
-449.74078373,185.44570000,-320.36800000
-449.57694373,189.79460000,-324.74750000
-449.41310374,133.27430000,-324.74750000
-449.24926374,94.13434000,-320.36800000
-449.08542374,120.22770000,-324.74750000
-448.92158374,181.09680000,-320.36800000
-448.75774374,189.79460000,-320.36800000
-448.59390374,137.62320000,-320.36800000
-448.43006374,94.13434000,-311.60920000
-448.26622374,120.22770000,-320.36800000
-448.10238374,181.09680000,-320.36800000
-447.93854374,189.79460000,-324.74750000
-447.77470375,137.62320000,-315.98860000
-447.61086375,94.13434000,-320.36800000
-447.44702375,128.92540000,-320.36800000
-447.28318375,185.44570000,-320.36800000
-447.11934375,185.44570000,-311.60920000
-446.95550375,120.22770000,-307.22980000
-446.79166375,94.13434000,-315.98860000
-446.62782375,146.30570000,-315.98860000
-446.46398375,194.14350000,-320.36800000
-446.30014375,172.39900000,-311.60920000
-446.13630376,107.18100000,-315.98860000
-445.97246376,102.83210000,-315.98860000
-445.80862376,159.35240000,-315.98860000
-445.64478376,198.49240000,-311.60920000
-445.48094376,155.00350000,-307.22980000
-445.31710376,98.48322000,-311.60920000
-445.15326376,115.87880000,-307.22980000
-444.98942376,181.09680000,-311.60920000
-444.82558376,189.79460000,-307.22980000
-444.66174376,133.27430000,-302.85040000
-444.49790377,94.13434000,-307.22980000
-444.33406377,128.92540000,-302.85040000
-444.17022377,189.79460000,-302.85040000
-444.00638377,181.09680000,-311.60920000
-443.84254377,115.87880000,-307.22980000
-443.67870377,98.48322000,-311.60920000
-443.51486377,155.00350000,-302.85040000
-443.35102377,198.49240000,-302.85040000
-443.18718377,159.35240000,-307.22980000
-443.02334377,98.48322000,-307.22980000
-442.85950378,107.18100000,-302.85040000
-442.69566378,172.39900000,-307.22980000
-442.53182378,198.49240000,-302.85040000
-442.36798378,146.30570000,-307.22980000
-442.20414378,94.13434000,-298.47100000
-442.04030378,124.57650000,-302.85040000
-441.87646378,185.44570000,-298.47100000
-441.71262378,185.44570000,-298.47100000
-441.54878378,115.87880000,-302.85040000
-441.38494378,98.48322000,-307.22980000
-441.22110379,155.00350000,-289.71220000
-441.05726379,198.49240000,-302.85040000
-440.89342379,155.00350000,-294.09160000
-440.72958379,98.48322000,-289.71220000
-440.56574379,120.22770000,-294.09160000
-440.40190379,189.79460000,-298.47100000
-440.23806379,181.09680000,-289.71220000
-440.07422379,111.52990000,-289.71220000
-439.91038379,102.83210000,-289.71220000
-439.74654379,168.05020000,-298.47100000
-439.58270380,194.14350000,-285.33280000
-439.41886380,133.27430000,-298.47100000
-439.25502380,94.13434000,-302.85040000
-439.09118380,150.65460000,-289.71220000
-438.92734380,198.49240000,-289.71220000
-438.76350380,146.30570000,-289.71220000
-438.59966380,94.13434000,-298.47100000
-438.43582380,141.95680000,-289.71220000
-438.27198380,194.14350000,-285.33280000
-438.10814380,146.30570000,-294.09160000
-437.94430381,94.13434000,-289.71220000
-437.78046381,146.30570000,-289.71220000
-437.61662381,194.14350000,-289.71220000
-437.45278381,146.30570000,-289.71220000
-437.28894381,94.13434000,-289.71220000
-437.12510381,141.95680000,-289.71220000
-436.96126381,198.49240000,-280.95340000
-436.79742381,146.30570000,-285.33280000
-436.63358381,94.13434000,-285.33280000
-436.46974381,155.00350000,-280.95340000
-436.30590382,194.14350000,-289.71220000
-436.14206382,128.92540000,-280.95340000
-435.97822382,98.48322000,-276.58920000
-435.81438382,172.39900000,-285.33280000
-435.65054382,189.79460000,-285.33280000
-435.48670382,115.87880000,-285.33280000
-435.32286382,102.83210000,-285.33280000
-435.15902382,176.74790000,-285.33280000
-434.99518382,185.44570000,-285.33280000
-434.83134382,111.52990000,-285.33280000
-434.66750383,115.87880000,-276.58920000
-434.50366383,185.44570000,-272.20980000
-434.33982383,172.39900000,-285.33280000
-434.17598383,98.48322000,-272.20980000
-434.01214383,128.92540000,-272.20980000
-433.84830383,194.14350000,-285.33280000
-433.68446383,155.00350000,-276.58920000
-433.52062383,94.13434000,-272.20980000
-433.35678383,141.95680000,-267.83040000
-433.19294383,198.49240000,-272.20980000
-433.02910383,141.95680000,-267.83040000
-432.86526384,94.13434000,-263.45100000
-432.70142384,159.35240000,-272.20980000
-432.53758384,194.14350000,-272.20980000
-432.37374384,124.57650000,-267.83040000
-432.20990384,98.48322000,-272.20980000
-432.04606384,172.39900000,-267.83040000
-431.88222384,189.79460000,-263.45100000
-431.71838384,115.87880000,-272.20980000
-431.55454384,107.18100000,-272.20980000
-431.39070384,185.44570000,-272.20980000
-431.22686385,172.39900000,-267.83040000
-431.06302385,98.48322000,-267.83040000
-430.89918385,137.62320000,-267.83040000
-430.73534385,194.14350000,-263.45100000
-430.57150385,137.62320000,-254.69220000
-430.40766385,94.13434000,-259.07160000
-430.24382385,168.05020000,-259.07160000
-430.07998385,189.79460000,-263.45100000
-429.91614385,111.52990000,-263.45100000
-429.75230385,115.87880000,-263.45100000
-429.58846386,189.79460000,-259.07160000
-429.42462386,159.35240000,-259.07160000
-429.26078386,94.13434000,-263.45100000
-429.09694386,155.00350000,-254.69220000
-428.93310386,189.79460000,-263.45100000
-428.76926386,111.52990000,-263.45100000
-428.60542386,115.87880000,-250.31280000
-428.44158386,189.79460000,-254.69220000
-428.27774386,150.65460000,-259.07160000
-428.11390386,94.13434000,-267.83040000
-427.95006387,168.05020000,-259.07160000
-427.78622387,185.44570000,-254.69220000
-427.62238387,102.83210000,-250.31280000
-427.45854387,137.62320000,-245.93340000
-427.29470387,194.14350000,-254.69220000
-427.13086387,124.57650000,-245.93340000
-426.96702387,111.52990000,-259.07160000
-426.80318387,189.79460000,-254.69220000
-426.63934387,155.00350000,-245.93340000
-426.47550387,94.13434000,-250.31280000
-426.31166388,168.05020000,-250.31280000
-426.14782388,181.09680000,-250.31280000
-425.98398388,98.48322000,-250.31280000
-425.82014388,146.30570000,-250.31280000
-425.65630388,194.14350000,-250.31280000
-425.49246388,111.52990000,-250.31280000
-425.32862388,124.57650000,-241.55400000
-425.16478388,194.14350000,-250.31280000
-425.00094388,128.92540000,-241.55400000
-424.83710388,107.18100000,-241.55400000
-424.67326389,189.79460000,-254.69220000
-424.50942389,155.00350000,-250.31280000
-424.34558389,94.13434000,-237.17460000
-424.18174389,172.39900000,-237.17460000
-424.01790389,176.74790000,-250.31280000
-423.85406389,94.13434000,-237.17460000
-423.69022389,155.00350000,-237.17460000
-423.52638389,189.79460000,-237.17460000
-423.36254389,102.83210000,-237.17460000
-423.19870389,133.27430000,-232.79520000
-423.03486390,198.49240000,-241.55400000
-422.87102390,120.22770000,-237.17460000
-422.70718390,107.18100000,-232.79520000
-422.54334390,194.14350000,-237.17460000
-422.37950390,141.95680000,-237.17460000
-422.21566390,102.83210000,-237.17460000
-422.05182390,185.44570000,-232.79520000
-421.88798390,159.35240000,-232.79520000
-421.72414390,94.13434000,-232.79520000
-421.56030390,168.05020000,-228.41580000
-421.39646391,185.44570000,-237.17460000
-421.23262391,98.48322000,-232.79520000
-421.06878391,141.95680000,-232.79520000
-420.90494391,194.14350000,-232.79520000
-420.74110391,111.52990000,-232.79520000
-420.57726391,124.57650000,-228.41580000
