Time,Channel A,Channel B
(ms),(mV),(mV)

-500.36734343,120.22770000,-372.90560000
-500.20350343,107.18100000,-372.90560000
-500.03966343,98.48322000,-372.90560000
-499.87582343,89.78545000,-377.28500000
-499.71198343,85.43656000,-377.28500000
-499.54814343,85.43656000,-377.28500000
-499.38430343,85.43656000,-377.28500000
-499.22046343,89.78545000,-372.90560000
-499.05662343,94.13434000,-381.66450000
-498.89278343,102.83210000,-372.90560000
-498.72894344,111.52990000,-381.66450000
-498.56510344,124.57650000,-368.52620000
-498.40126344,141.95680000,-372.90560000
-498.23742344,155.00350000,-381.66450000
-498.07358344,168.05020000,-377.28500000
-497.90974344,176.74790000,-368.52620000
-497.74590344,185.44570000,-372.90560000
-497.58206344,189.79460000,-377.28500000
-497.41822344,194.14350000,-368.52620000
-497.25438344,194.14350000,-377.28500000
-497.09054345,194.14350000,-368.52620000
-496.92670345,189.79460000,-381.66450000
-496.76286345,185.44570000,-372.90560000
-496.59902345,181.09680000,-372.90560000
-496.43518345,172.39900000,-368.52620000
-496.27134345,168.05020000,-377.28500000
-496.10750345,159.35240000,-368.52620000
-495.94366345,155.00350000,-377.28500000
-495.77982345,146.30570000,-368.52620000
-495.61598345,141.95680000,-377.28500000
-495.45214346,137.62320000,-372.90560000
-495.28830346,128.92540000,-368.52620000
-495.12446346,124.57650000,-372.90560000
-494.96062346,120.22770000,-368.52620000
-494.79678346,115.87880000,-368.52620000
-494.63294346,115.87880000,-377.28500000
-494.46910346,111.52990000,-364.14690000
-494.30526346,111.52990000,-377.28500000
-494.14142346,111.52990000,-364.14690000
-493.97758346,115.87880000,-364.14690000
-493.81374347,115.87880000,-381.66450000
-493.64990347,120.22770000,-377.28500000
-493.48606347,120.22770000,-377.28500000
-493.32222347,120.22770000,-372.90560000
-493.15838347,124.57650000,-372.90560000
-492.99454347,124.57650000,-372.90560000
-492.83070347,124.57650000,-377.28500000
-492.66686347,128.92540000,-377.28500000
-492.50302347,133.27430000,-368.52620000
-492.33918347,137.62320000,-372.90560000
-492.17534348,141.95680000,-368.52620000
-492.01150348,150.65460000,-368.52620000
-491.84766348,159.35240000,-372.90560000
-491.68382348,163.70130000,-372.90560000
-491.51998348,172.39900000,-372.90560000
-491.35614348,176.74790000,-377.28500000
-491.19230348,181.09680000,-368.52620000
-491.02846348,185.44570000,-364.14690000
-490.86462348,189.79460000,-368.52620000
-490.70078348,189.79460000,-372.90560000
-490.53694349,189.79460000,-372.90560000
-490.37310349,194.14350000,-359.76740000
-490.20926349,194.14350000,-372.90560000
-490.04542349,189.79460000,-364.14690000
-489.88158349,189.79460000,-381.66450000
-489.71774349,185.44570000,-377.28500000
-489.55390349,181.09680000,-372.90560000
-489.39006349,172.39900000,-372.90560000
-489.22622349,168.05020000,-381.66450000
-489.06238349,159.35240000,-372.90560000
-488.89854350,150.65460000,-364.14690000
-488.73470350,137.62320000,-372.90560000
-488.57086350,133.27430000,-364.14690000
-488.40702350,120.22770000,-368.52620000
-488.24318350,111.52990000,-372.90560000
-488.07934350,102.83210000,-368.52620000
-487.91550350,98.48322000,-377.28500000
-487.75166350,94.13434000,-368.52620000
-487.58782350,85.43656000,-377.28500000
-487.42398350,85.43656000,-372.90560000
-487.26014351,85.43656000,-372.90560000
-487.09630351,85.43656000,-372.90560000
-486.93246351,85.43656000,-364.14690000
-486.76862351,94.13434000,-372.90560000
-486.60478351,102.83210000,-368.52620000
-486.44094351,111.52990000,-372.90560000
-486.27710351,124.57650000,-372.90560000
-486.11326351,137.62320000,-368.52620000
-485.94942351,150.65460000,-368.52620000
-485.78558351,163.70130000,-364.14690000
-485.62174352,172.39900000,-368.52620000
-485.45790352,181.09680000,-364.14690000
-485.29406352,189.79460000,-368.52620000
-485.13022352,194.14350000,-364.14690000
-484.96638352,194.14350000,-364.14690000
-484.80254352,189.79460000,-372.90560000
-484.63870352,181.09680000,-359.76740000
-484.47486352,172.39900000,-372.90560000
-484.31102352,159.35240000,-372.90560000
-484.14718352,146.30570000,-368.52620000
-483.98334353,128.92540000,-368.52620000
-483.81950353,115.87880000,-364.14690000
-483.65566353,98.48322000,-364.14690000
-483.49182353,89.78545000,-368.52620000
-483.32798353,85.43656000,-368.52620000
-483.16414353,85.43656000,-364.14690000
-483.00030353,94.13434000,-364.14690000
-482.83646353,107.18100000,-359.76740000
-482.67262353,124.57650000,-359.76740000
-482.50878353,141.95680000,-364.14690000
-482.34494354,159.35240000,-368.52620000
-482.18110354,172.39900000,-355.38800000
-482.01726354,185.44570000,-372.90560000
-481.85342354,194.14350000,-368.52620000
-481.68958354,194.14350000,-368.52620000
-481.52574354,185.44570000,-368.52620000
-481.36190354,168.05020000,-364.14690000
-481.19806354,146.30570000,-364.14690000
-481.03422354,120.22770000,-364.14690000
-480.87038354,102.83210000,-368.52620000
-480.70654355,89.78545000,-364.14690000
-480.54270355,85.43656000,-364.14690000
-480.37886355,89.78545000,-368.52620000
-480.21502355,102.83210000,-359.76740000
-480.05118355,124.57650000,-355.38800000
-479.88734355,150.65460000,-355.38800000
-479.72350355,172.39900000,-364.14690000
-479.55966355,185.44570000,-359.76740000
-479.39582355,189.79460000,-368.52620000
-479.23198355,189.79460000,-368.52620000
-479.06814356,172.39900000,-364.14690000
-478.90430356,155.00350000,-364.14690000
-478.74046356,128.92540000,-359.76740000
-478.57662356,102.83210000,-368.52620000
-478.41278356,89.78545000,-359.76740000
-478.24894356,85.43656000,-355.38800000
-478.08510356,98.48322000,-355.38800000
-477.92126356,124.57650000,-355.38800000
-477.75742356,155.00350000,-359.76740000
-477.59358356,176.74790000,-359.76740000
-477.42974357,189.79460000,-359.76740000
-477.26590357,189.79460000,-368.52620000
-477.10206357,172.39900000,-355.38800000
-476.93822357,146.30570000,-355.38800000
-476.77438357,115.87880000,-359.76740000
-476.61054357,94.13434000,-351.00860000
-476.44670357,85.43656000,-359.76740000
-476.28286357,94.13434000,-364.14690000
-476.11902357,120.22770000,-355.38800000
-475.95518357,155.00350000,-364.14690000
-475.79134358,181.09680000,-359.76740000
-475.62750358,189.79460000,-351.00860000
-475.46366358,185.44570000,-355.38800000
-475.29982358,159.35240000,-359.76740000
-475.13598358,124.57650000,-355.38800000
-474.97214358,98.48322000,-359.76740000
-474.80830358,85.43656000,-355.38800000
-474.64446358,98.48322000,-359.76740000
-474.48062358,120.22770000,-355.38800000
-474.31678358,155.00350000,-359.76740000
-474.15294359,181.09680000,-359.76740000
-473.98910359,194.14350000,-355.38800000
-473.82526359,185.44570000,-364.14690000
-473.66142359,155.00350000,-355.38800000
-473.49758359,120.22770000,-355.38800000
-473.33374359,94.13434000,-359.76740000
-473.16990359,85.43656000,-351.00860000
-473.00606359,102.83210000,-346.62920000
-472.84222359,137.62320000,-359.76740000
-472.67838359,172.39900000,-355.38800000
-472.51454360,189.79460000,-355.38800000
-472.35070360,185.44570000,-359.76740000
-472.18686360,159.35240000,-355.38800000
-472.02302360,120.22770000,-346.62920000
-471.85918360,94.13434000,-351.00860000
-471.69534360,85.43656000,-346.62920000
-471.53150360,107.18100000,-355.38800000
-471.36766360,141.95680000,-351.00860000
-471.20382360,172.39900000,-346.62920000
-471.03998360,189.79460000,-346.62920000
-470.87614360,181.09680000,-355.38800000
-470.71230361,150.65460000,-355.38800000
-470.54846361,111.52990000,-342.24980000
-470.38462361,85.43656000,-355.38800000
-470.22078361,94.13434000,-355.38800000
-470.05694361,128.92540000,-346.62920000
-469.89310361,168.05020000,-346.62920000
-469.72926361,189.79460000,-342.24980000
-469.56542361,185.44570000,-355.38800000
-469.40158361,155.00350000,-337.87040000
-469.23774361,111.52990000,-346.62920000
-469.07390362,85.43656000,-355.38800000
-468.91006362,94.13434000,-342.24980000
-468.74622362,128.92540000,-355.38800000
-468.58238362,172.39900000,-346.62920000
-468.41854362,189.79460000,-342.24980000
-468.25470362,176.74790000,-346.62920000
-468.09086362,137.62320000,-351.00860000
-467.92702362,98.48322000,-346.62920000
-467.76318362,85.43656000,-342.24980000
-467.59934362,111.52990000,-342.24980000
-467.43550363,155.00350000,-355.38800000
-467.27166363,189.79460000,-342.24980000
-467.10782363,185.44570000,-337.87040000
-466.94398363,150.65460000,-346.62920000
-466.78014363,102.83210000,-342.24980000
-466.61630363,85.43656000,-346.62920000
-466.45246363,107.18100000,-346.62920000
-466.28862363,150.65460000,-346.62920000
-466.12478363,185.44570000,-346.62920000
-465.96094363,189.79460000,-333.49100000
-465.79710364,155.00350000,-342.24980000
-465.63326364,111.52990000,-342.24980000
-465.46942364,85.43656000,-342.24980000
-465.30558364,102.83210000,-337.87040000
-465.14174364,150.65460000,-333.49100000
-464.97790364,185.44570000,-342.24980000
-464.81406364,189.79460000,-342.24980000
-464.65022364,155.00350000,-333.49100000
-464.48638364,107.18100000,-337.87040000
-464.32254364,85.43656000,-337.87040000
-464.15870365,107.18100000,-333.49100000
-463.99486365,146.30570000,-342.24980000
-463.83102365,185.44570000,-333.49100000
-463.66718365,189.79460000,-333.49100000
-463.50334365,155.00350000,-337.87040000
-463.33950365,107.18100000,-342.24980000
-463.17566365,85.43656000,-333.49100000
-463.01182365,111.52990000,-333.49100000
-462.84798365,159.35240000,-333.49100000
-462.68414365,189.79460000,-333.49100000
-462.52030366,181.09680000,-342.24980000
-462.35646366,133.27430000,-337.87040000
-462.19262366,89.78545000,-333.49100000
-462.02878366,94.13434000,-333.49100000
-461.86494366,133.27430000,-333.49100000
-461.70110366,181.09680000,-324.74750000
-461.53726366,189.79460000,-333.49100000
-461.37342366,150.65460000,-337.87040000
-461.20958366,98.48322000,-337.87040000
-461.04574366,89.78545000,-329.12680000
-460.88190367,133.27430000,-329.12680000
-460.71806367,181.09680000,-324.74750000
-460.55422367,189.79460000,-329.12680000
-460.39038367,146.30570000,-324.74750000
-460.22654367,98.48322000,-329.12680000
-460.06270367,94.13434000,-333.49100000
-459.89886367,137.62320000,-324.74750000
-459.73502367,185.44570000,-333.49100000
-459.57118367,176.74790000,-329.12680000
-459.40734367,124.57650000,-324.74750000
-459.24350368,89.78545000,-324.74750000
-459.07966368,111.52990000,-329.12680000
-458.91582368,168.05020000,-324.74750000
-458.75198368,189.79460000,-320.36800000
-458.58814368,155.00350000,-315.98860000
-458.42430368,102.83210000,-324.74750000
-458.26046368,94.13434000,-320.36800000
-458.09662368,146.30570000,-329.12680000
-457.93278368,189.79460000,-320.36800000
-457.76894368,168.05020000,-324.74750000
-457.60510369,107.18100000,-320.36800000
-457.44126369,94.13434000,-324.74750000
-457.27742369,137.62320000,-324.74750000
-457.11358369,189.79460000,-311.60920000
-456.94974369,172.39900000,-315.98860000
-456.78590369,115.87880000,-324.74750000
-456.62206369,85.43656000,-324.74750000
-456.45822369,128.92540000,-320.36800000
-456.29438369,181.09680000,-329.12680000
-456.13054369,181.09680000,-324.74750000
-455.96670370,120.22770000,-324.74750000
-455.80286370,85.43656000,-320.36800000
-455.63902370,124.57650000,-320.36800000
-455.47518370,181.09680000,-320.36800000
-455.31134370,181.09680000,-307.22980000
-455.14750370,124.57650000,-320.36800000
-454.98366370,85.43656000,-320.36800000
-454.81982370,120.22770000,-320.36800000
-454.65598370,176.74790000,-315.98860000
-454.49214370,185.44570000,-320.36800000
-454.32830371,133.27430000,-315.98860000
-454.16446371,85.43656000,-307.22980000
-454.00062371,120.22770000,-311.60920000
-453.83678371,176.74790000,-320.36800000
-453.67294371,189.79460000,-315.98860000
-453.50910371,133.27430000,-311.60920000
-453.34526371,89.78545000,-311.60920000
-453.18142371,111.52990000,-320.36800000
-453.01758371,172.39900000,-311.60920000
-452.85374371,189.79460000,-311.60920000
-452.68990372,137.62320000,-315.98860000
-452.52606372,89.78545000,-320.36800000
-452.36222372,115.87880000,-311.60920000
-452.19838372,172.39900000,-302.85040000
-452.03454372,185.44570000,-298.47100000
-451.87070372,128.92540000,-311.60920000
-451.70686372,85.43656000,-307.22980000
-451.54302372,124.57650000,-302.85040000
-451.37918372,181.09680000,-307.22980000
-451.21534372,181.09680000,-302.85040000
-451.05150373,120.22770000,-302.85040000
-450.88766373,89.78545000,-307.22980000
-450.72382373,137.62320000,-307.22980000
-450.55998373,189.79460000,-307.22980000
-450.39614373,159.35240000,-298.47100000
-450.23230373,98.48322000,-302.85040000
-450.06846373,102.83210000,-311.60920000
-449.90462373,168.05020000,-298.47100000
-449.74078373,189.79460000,-302.85040000
-449.57694373,133.27430000,-298.47100000
-449.41310374,89.78545000,-298.47100000
-449.24926374,128.92540000,-302.85040000
-449.08542374,185.44570000,-298.47100000
-448.92158374,168.05020000,-294.09160000
-448.75774374,102.83210000,-298.47100000
-448.59390374,102.83210000,-298.47100000
-448.43006374,172.39900000,-302.85040000
-448.26622374,185.44570000,-302.85040000
-448.10238374,120.22770000,-294.09160000
-447.93854374,89.78545000,-302.85040000
-447.77470375,150.65460000,-298.47100000
-447.61086375,189.79460000,-298.47100000
-447.44702375,141.95680000,-298.47100000
-447.28318375,89.78545000,-294.09160000
-447.11934375,128.92540000,-298.47100000
-446.95550375,189.79460000,-298.47100000
-446.79166375,155.00350000,-289.71220000
-446.62782375,94.13434000,-294.09160000
-446.46398375,120.22770000,-298.47100000
-446.30014375,181.09680000,-285.33280000
-446.13630376,168.05020000,-294.09160000
-445.97246376,98.48322000,-294.09160000
-445.80862376,102.83210000,-294.09160000
-445.64478376,172.39900000,-289.71220000
-445.48094376,181.09680000,-280.95340000
-445.31710376,111.52990000,-285.33280000
-445.15326376,94.13434000,-285.33280000
-444.98942376,163.70130000,-285.33280000
-444.82558376,185.44570000,-294.09160000
-444.66174376,120.22770000,-285.33280000
-444.49790377,94.13434000,-289.71220000
-444.33406377,155.00350000,-285.33280000
-444.17022377,189.79460000,-289.71220000
-444.00638377,124.57650000,-285.33280000
-443.84254377,89.78545000,-289.71220000
-443.67870377,150.65460000,-280.95340000
-443.51486377,189.79460000,-285.33280000
-443.35102377,124.57650000,-285.33280000
-443.18718377,89.78545000,-285.33280000
-443.02334377,155.00350000,-289.71220000
-442.85950378,189.79460000,-276.58920000
-442.69566378,128.92540000,-276.58920000
-442.53182378,89.78545000,-276.58920000
-442.36798378,155.00350000,-276.58920000
-442.20414378,189.79460000,-289.71220000
-442.04030378,124.57650000,-285.33280000
-441.87646378,94.13434000,-276.58920000
-441.71262378,163.70130000,-280.95340000
-441.54878378,181.09680000,-272.20980000
-441.38494378,107.18100000,-272.20980000
-441.22110379,107.18100000,-267.83040000
-441.05726379,181.09680000,-272.20980000
-440.89342379,163.70130000,-272.20980000
-440.72958379,89.78545000,-276.58920000
-440.56574379,124.57650000,-276.58920000
-440.40190379,189.79460000,-263.45100000
-440.23806379,141.95680000,-272.20980000
-440.07422379,89.78545000,-267.83040000
-439.91038379,155.00350000,-272.20980000
-439.74654379,185.44570000,-276.58920000
-439.58270380,107.18100000,-276.58920000
-439.41886380,107.18100000,-267.83040000
-439.25502380,181.09680000,-276.58920000
-439.09118380,159.35240000,-276.58920000
-438.92734380,85.43656000,-272.20980000
-438.76350380,137.62320000,-272.20980000
-438.59966380,189.79460000,-263.45100000
-438.43582380,120.22770000,-263.45100000
-438.27198380,98.48322000,-267.83040000
-438.10814380,176.74790000,-263.45100000
-437.94430381,168.05020000,-272.20980000
-437.78046381,94.13434000,-267.83040000
-437.61662381,137.62320000,-267.83040000
-437.45278381,189.79460000,-263.45100000
-437.28894381,120.22770000,-276.58920000
-437.12510381,98.48322000,-267.83040000
-436.96126381,172.39900000,-267.83040000
-436.79742381,168.05020000,-263.45100000
-436.63358381,94.13434000,-259.07160000
-436.46974381,133.27430000,-259.07160000
-436.30590382,189.79460000,-263.45100000
-436.14206382,120.22770000,-254.69220000
-435.97822382,98.48322000,-263.45100000
-435.81438382,176.74790000,-263.45100000
-435.65054382,163.70130000,-259.07160000
-435.48670382,89.78545000,-259.07160000
-435.32286382,137.62320000,-254.69220000
-435.15902382,189.79460000,-259.07160000
-434.99518382,120.22770000,-250.31280000
-434.83134382,98.48322000,-254.69220000
-434.66750383,172.39900000,-254.69220000
-434.50366383,168.05020000,-254.69220000
-434.33982383,89.78545000,-254.69220000
-434.17598383,137.62320000,-254.69220000
-434.01214383,189.79460000,-259.07160000
-433.84830383,120.22770000,-254.69220000
-433.68446383,98.48322000,-254.69220000
-433.52062383,176.74790000,-254.69220000
-433.35678383,159.35240000,-254.69220000
-433.19294383,85.43656000,-245.93340000
-433.02910383,146.30570000,-254.69220000
-432.86526384,185.44570000,-250.31280000
-432.70142384,107.18100000,-250.31280000
-432.53758384,111.52990000,-237.17460000
-432.37374384,189.79460000,-250.31280000
-432.20990384,137.62320000,-250.31280000
-432.04606384,89.78545000,-254.69220000
-431.88222384,172.39900000,-245.93340000
-431.71838384,172.39900000,-250.31280000
-431.55454384,94.13434000,-250.31280000
-431.39070384,137.62320000,-237.17460000
-431.22686385,189.79460000,-254.69220000
-431.06302385,102.83210000,-241.55400000
-430.89918385,120.22770000,-232.79520000
-430.73534385,189.79460000,-237.17460000
-430.57150385,115.87880000,-241.55400000
-430.40766385,107.18100000,-241.55400000
-430.24382385,189.79460000,-241.55400000
-430.07998385,133.27430000,-232.79520000
-429.91614385,94.13434000,-241.55400000
-429.75230385,181.09680000,-224.03640000
-429.58846386,150.65460000,-237.17460000
-429.42462386,89.78545000,-232.79520000
-429.26078386,172.39900000,-228.41580000
-429.09694386,155.00350000,-237.17460000
-428.93310386,89.78545000,-228.41580000
-428.76926386,168.05020000,-232.79520000
-428.60542386,163.70130000,-232.79520000
-428.44158386,89.78545000,-237.17460000
-428.27774386,163.70130000,-237.17460000
-428.11390386,168.05020000,-228.41580000
-427.95006387,85.43656000,-228.41580000
-427.78622387,159.35240000,-228.41580000
-427.62238387,172.39900000,-224.03640000
-427.45854387,89.78545000,-228.41580000
-427.29470387,159.35240000,-232.79520000
-427.13086387,168.05020000,-228.41580000
-426.96702387,89.78545000,-224.03640000
-426.80318387,159.35240000,-232.79520000
-426.63934387,172.39900000,-228.41580000
-426.47550387,89.78545000,-228.41580000
-426.31166388,155.00350000,-224.03640000
-426.14782388,172.39900000,-224.03640000
-425.98398388,89.78545000,-219.67220000
-425.82014388,155.00350000,-228.41580000
-425.65630388,172.39900000,-219.67220000
-425.49246388,89.78545000,-219.67220000
-425.32862388,159.35240000,-224.03640000
-425.16478388,172.39900000,-219.67220000
-425.00094388,85.43656000,-215.29280000
-424.83710388,159.35240000,-224.03640000
-424.67326389,172.39900000,-224.03640000
-424.50942389,89.78545000,-219.67220000
-424.34558389,155.00350000,-215.29280000
-424.18174389,172.39900000,-215.29280000
-424.01790389,89.78545000,-215.29280000
-423.85406389,155.00350000,-215.29280000
-423.69022389,172.39900000,-215.29280000
-423.52638389,89.78545000,-219.67220000
-423.36254389,155.00350000,-219.67220000
-423.19870389,172.39900000,-215.29280000
-423.03486390,89.78545000,-215.29280000
-422.87102390,159.35240000,-202.15460000
-422.70718390,168.05020000,-206.53400000
-422.54334390,89.78545000,-215.29280000
-422.37950390,168.05020000,-206.53400000
-422.21566390,159.35240000,-202.15460000
-422.05182390,85.43656000,-206.53400000
-421.88798390,176.74790000,-215.29280000
-421.72414390,150.65460000,-206.53400000
-421.56030390,94.13434000,-210.91340000
-421.39646391,185.44570000,-202.15460000
-421.23262391,133.27430000,-202.15460000
-421.06878391,102.83210000,-202.15460000
-420.90494391,189.79460000,-197.77520000
-420.74110391,115.87880000,-202.15460000
-420.57726391,115.87880000,-202.15460000
-420.41342391,189.79460000,-202.15460000
